0.8408817052841187
0.8408521413803101
0.8408225774765015
0.8407930135726929
0.8407682180404663
0.8407434225082397
0.8407186269760132
0.8406938314437866
0.8407071828842163
0.840720534324646
0.8407338857650757
0.8407472372055054
0.8407129049301147
0.8406785726547241
0.8406442403793335
0.8406099081039429
0.8405746221542358
0.8405393362045288
0.8405040502548218
0.8404687643051147
0.8404992818832397
0.8405297994613647
0.8405603170394897
0.8405908346176147
0.8406051397323608
0.8406194448471069
0.840633749961853
0.8406480550765991
0.8406471014022827
0.8406461477279663
0.8406451940536499
0.8406442403793335
0.8405183553695679
0.8403924703598022
0.8402665853500366
0.840140700340271
0.8401921987533569
0.8402436971664429
0.8402951955795288
0.8403466939926147
0.8403371572494507
0.8403276205062866
0.8403180837631226
0.8403085470199585
0.8402293920516968
0.8401502370834351
0.8400710821151733
0.8399919271469116
0.8399900197982788
0.839988112449646
0.8399862051010132
0.8399842977523804
0.8399070501327515
0.8398298025131226
0.8397525548934937
0.8396753072738647
0.8396314382553101
0.8395875692367554
0.8395437002182007
0.839499831199646
0.839408278465271
0.839316725730896
0.839225172996521
0.839133620262146
0.8391708135604858
0.8392080068588257
0.8392452001571655
0.8392823934555054
0.8392337560653687
0.8391851186752319
0.8391364812850952
0.8390878438949585
0.839128851890564
0.8391698598861694
0.8392108678817749
0.8392518758773804
0.8392785787582397
0.8393052816390991
0.8393319845199585
0.8393586874008179
0.8394187688827515
0.8394788503646851
0.8395389318466187
0.8395990133285522
0.8396285772323608
0.8396581411361694
0.839687705039978
0.8397172689437866
0.8397287130355835
0.8397401571273804
0.8397516012191772
0.8397630453109741
0.8397649526596069
0.8397668600082397
0.8397687673568726
0.8397706747055054
0.8398078680038452
0.8398450613021851
0.8398822546005249
0.8399194478988647
0.8399718999862671
0.8400243520736694
0.8400768041610718
0.8401292562484741
0.8401693105697632
0.8402093648910522
0.8402494192123413
0.8402894735336304
0.8402646780014038
0.8402398824691772
0.8402150869369507
0.8401902914047241
0.8402560949325562
0.8403218984603882
0.8403877019882202
0.8404535055160522
0.8403981924057007
0.8403428792953491
0.8402875661849976
0.840232253074646
0.8402341604232788
0.8402360677719116
0.8402379751205444
0.8402398824691772
0.8401864767074585
0.8401330709457397
0.840079665184021
0.8400262594223022
0.8399919271469116
0.839957594871521
0.8399232625961304
0.8398889303207397
0.8398851156234741
0.8398813009262085
0.8398774862289429
0.8398736715316772
0.8398908376693726
0.8399080038070679
0.8399251699447632
0.8399423360824585
0.8399823904037476
0.8400224447250366
0.8400624990463257
0.8401025533676147
0.8401683568954468
0.8402341604232788
0.8402999639511108
0.8403657674789429
0.8403762578964233
0.8403867483139038
0.8403972387313843
0.8404077291488647
0.8404296636581421
0.8404515981674194
0.8404735326766968
0.8404954671859741
0.8404525518417358
0.8404096364974976
0.8403667211532593
0.840323805809021
0.8403228521347046
0.8403218984603882
0.8403209447860718
0.8403199911117554
0.8403609991073608
0.8404020071029663
0.8404430150985718
0.8404840230941772
0.8404792547225952
0.8404744863510132
0.8404697179794312
0.8404649496078491
0.8404821157455444
0.8404992818832397
0.8405164480209351
0.8405336141586304
0.8406184911727905
0.8407033681869507
0.8407882452011108
0.840873122215271
0.840837836265564
0.8408025503158569
0.8407672643661499
0.8407319784164429
0.840725302696228
0.8407186269760132
0.8407119512557983
0.8407052755355835
0.8406718969345093
0.8406385183334351
0.8406051397323608
0.8405717611312866
0.840506911277771
0.8404420614242554
0.8403772115707397
0.8403123617172241
0.8402284383773804
0.8401445150375366
0.8400605916976929
0.8399766683578491
0.839957594871521
0.8399385213851929
0.8399194478988647
0.8399003744125366
0.8398774862289429
0.8398545980453491
0.8398317098617554
0.8398088216781616
0.8397678136825562
0.8397268056869507
0.8396857976913452
0.8396447896957397
0.8397334814071655
0.8398221731185913
0.8399108648300171
0.8399995565414429
0.840049147605896
0.8400987386703491
0.8401483297348022
0.8401979207992554
0.8402456045150757
0.840293288230896
0.8403409719467163
0.8403886556625366
0.8404363393783569
0.8404840230941772
0.8405317068099976
0.8405793905258179
0.8405202627182007
0.8404611349105835
0.8404020071029663
0.8403428792953491
0.8403333425521851
0.840323805809021
0.8403142690658569
0.8403047323226929
0.8402894735336304
0.8402742147445679
0.8402589559555054
0.8402436971664429
0.8401807546615601
0.8401178121566772
0.8400548696517944
0.8399919271469116
0.8399862051010132
0.8399804830551147
0.8399747610092163
0.8399690389633179
0.8399842977523804
0.8399995565414429
0.8400148153305054
0.8400300741195679
0.8401502370834351
0.8402704000473022
0.8403905630111694
0.8405107259750366
0.8405183553695679
0.8405259847640991
0.8405336141586304
0.8405412435531616
0.8405402898788452
0.8405393362045288
0.8405383825302124
0.840537428855896
0.8405002355575562
0.8404630422592163
0.8404258489608765
0.8403886556625366
0.840410590171814
0.8404325246810913
0.8404544591903687
0.840476393699646
0.8404611349105835
0.840445876121521
0.8404306173324585
0.840415358543396
0.8403428792953491
0.8402704000473022
0.8401979207992554
0.8401254415512085
0.8401044607162476
0.8400834798812866
0.8400624990463257
0.8400415182113647
0.8400357961654663
0.8400300741195679
0.8400243520736694
0.840018630027771
0.8400596380233765
0.8401006460189819
0.8401416540145874
0.8401826620101929
0.8402360677719116
0.8402894735336304
0.8403428792953491
0.8403962850570679
0.8404163122177124
0.8404363393783569
0.8404563665390015
0.840476393699646
0.8405269384384155
0.8405774831771851
0.8406280279159546
0.8406785726547241
0.8407100439071655
0.8407415151596069
0.8407729864120483
0.8408044576644897
0.8408941030502319
0.8409837484359741
0.8410733938217163
0.8411630392074585
0.8411897420883179
0.8412164449691772
0.8412431478500366
0.841269850730896
0.8412460088729858
0.8412221670150757
0.8411983251571655
0.8411744832992554
0.8411935567855835
0.8412126302719116
0.8412317037582397
0.8412507772445679
0.8412240743637085
0.8411973714828491
0.8411706686019897
0.8411439657211304
0.841112494468689
0.8410810232162476
0.8410495519638062
0.8410180807113647
0.8410686254501343
0.8411191701889038
0.8411697149276733
0.8412202596664429
0.8412278890609741
0.8412355184555054
0.8412431478500366
0.8412507772445679
0.8412679433822632
0.8412851095199585
0.8413022756576538
0.8413194417953491
0.8412498235702515
0.8411802053451538
0.8411105871200562
0.8410409688949585
0.8410161733627319
0.8409913778305054
0.8409665822982788
0.8409417867660522
0.8410123586654663
0.8410829305648804
0.8411535024642944
0.8412240743637085
0.8412660360336304
0.8413079977035522
0.8413499593734741
0.841391921043396
0.8414319753646851
0.8414720296859741
0.8415120840072632
0.8415521383285522
0.8415473699569702
0.8415426015853882
0.8415378332138062
0.8415330648422241
0.8414872884750366
0.8414415121078491
0.8413957357406616
0.8413499593734741
0.8413900136947632
0.8414300680160522
0.8414701223373413
0.8415101766586304
0.8415311574935913
0.8415521383285522
0.8415731191635132
0.8415940999984741
0.841570258140564
0.8415464162826538
0.8415225744247437
0.8414987325668335
0.8414911031723022
0.841483473777771
0.8414758443832397
0.8414682149887085
0.8414844274520874
0.8415006399154663
0.8415168523788452
0.8415330648422241
0.8415349721908569
0.8415368795394897
0.8415387868881226
0.8415406942367554
0.8415769338607788
0.8416131734848022
0.8416494131088257
0.8416856527328491
0.8416837453842163
0.8416818380355835
0.8416799306869507
0.8416780233383179
0.8416827917098999
0.8416875600814819
0.841692328453064
0.841697096824646
0.8416866064071655
0.8416761159896851
0.8416656255722046
0.8416551351547241
0.8416856527328491
0.8417161703109741
0.8417466878890991
0.8417772054672241
0.8417905569076538
0.8418039083480835
0.8418172597885132
0.8418306112289429
0.8418458700180054
0.8418611288070679
0.8418763875961304
0.8418916463851929
0.8418964147567749
0.8419011831283569
0.841905951499939
0.841910719871521
0.841884970664978
0.8418592214584351
0.8418334722518921
0.8418077230453491
0.8418105840682983
0.8418134450912476
0.8418163061141968
0.841819167137146
0.8418411016464233
0.8418630361557007
0.841884970664978
0.8419069051742554
0.8418601751327515
0.8418134450912476
0.8417667150497437
0.8417199850082397
0.8416770696640015
0.8416341543197632
0.8415912389755249
0.8415483236312866
0.8415216207504272
0.8414949178695679
0.8414682149887085
0.8414415121078491
0.8414453268051147
0.8414491415023804
0.841452956199646
0.8414567708969116
0.8414567708969116
0.8414567708969116
0.8414567708969116
0.8414567708969116
0.8413671255111694
0.8412774801254272
0.8411878347396851
0.8410981893539429
0.8410571813583374
0.8410161733627319
0.8409751653671265
0.840934157371521
0.8409274816513062
0.8409208059310913
0.8409141302108765
0.8409074544906616
0.8408759832382202
0.8408445119857788
0.8408130407333374
0.840781569480896
0.8407586812973022
0.8407357931137085
0.8407129049301147
0.840690016746521
0.8406757116317749
0.8406614065170288
0.8406471014022827
0.8406327962875366
0.8405870199203491
0.8405412435531616
0.8404954671859741
0.8404496908187866
0.8404334783554077
0.8404172658920288
0.8404010534286499
0.840384840965271
0.8403924703598022
0.8404000997543335
0.8404077291488647
0.840415358543396
0.8403934240341187
0.8403714895248413
0.840349555015564
0.8403276205062866
0.840288519859314
0.8402494192123413
0.8402103185653687
0.840171217918396
0.8401473760604858
0.8401235342025757
0.8400996923446655
0.8400758504867554
0.8400453329086304
0.8400148153305054
0.8399842977523804
0.8399537801742554
0.8399137258529663
0.8398736715316772
0.8398336172103882
0.8397935628890991
0.8397344350814819
0.8396753072738647
0.8396161794662476
0.8395570516586304
0.8395227193832397
0.8394883871078491
0.8394540548324585
0.8394197225570679
0.839403510093689
0.8393872976303101
0.8393710851669312
0.8393548727035522
0.8393691778182983
0.8393834829330444
0.8393977880477905
0.8394120931625366
0.8393720388412476
0.8393319845199585
0.8392919301986694
0.8392518758773804
0.8392385244369507
0.839225172996521
0.8392118215560913
0.8391984701156616
0.8391736745834351
0.8391488790512085
0.8391240835189819
0.8390992879867554
0.8391135931015015
0.8391278982162476
0.8391422033309937
0.8391565084457397
0.8392337560653687
0.8393110036849976
0.8393882513046265
0.8394654989242554
0.8394883871078491
0.8395112752914429
0.8395341634750366
0.8395570516586304
0.8395398855209351
0.8395227193832397
0.8395055532455444
0.8394883871078491
0.8394511938095093
0.8394140005111694
0.8393768072128296
0.8393396139144897
0.8393348455429077
0.8393300771713257
0.8393253087997437
0.8393205404281616
0.839347243309021
0.8393739461898804
0.8394006490707397
0.8394273519515991
0.8394502401351929
0.8394731283187866
0.8394960165023804
0.8395189046859741
0.8394845724105835
0.8394502401351929
0.8394159078598022
0.8393815755844116
0.8394283056259155
0.8394750356674194
0.8395217657089233
0.8395684957504272
0.839596152305603
0.8396238088607788
0.8396514654159546
0.8396791219711304
0.8396619558334351
0.8396447896957397
0.8396276235580444
0.8396104574203491
0.8396018743515015
0.8395932912826538
0.8395847082138062
0.8395761251449585
0.839626669883728
0.8396772146224976
0.8397277593612671
0.8397783041000366
0.8397849798202515
0.8397916555404663
0.8397983312606812
0.839805006980896
0.8398021459579468
0.8397992849349976
0.8397964239120483
0.8397935628890991
0.8398479223251343
0.8399022817611694
0.8399566411972046
0.8400110006332397
0.8399728536605835
0.8399347066879272
0.839896559715271
0.8398584127426147
0.8397735357284546
0.8396886587142944
0.8396037817001343
0.8395189046859741
0.8395446538925171
0.8395704030990601
0.839596152305603
0.839621901512146
0.8395894765853882
0.8395570516586304
0.8395246267318726
0.8394922018051147
0.8395484685897827
0.8396047353744507
0.8396610021591187
0.8397172689437866
0.8397248983383179
0.8397325277328491
0.8397401571273804
0.8397477865219116
0.8397916555404663
0.839835524559021
0.8398793935775757
0.8399232625961304
0.8399661779403687
0.8400090932846069
0.8400520086288452
0.8400949239730835
0.8401530981063843
0.8402112722396851
0.8402694463729858
0.8403276205062866
0.8403095006942749
0.8402913808822632
0.8402732610702515
0.8402551412582397
0.8402208089828491
0.8401864767074585
0.8401521444320679
0.8401178121566772
0.8400291204452515
0.8399404287338257
0.8398517370223999
0.8397630453109741
0.8397010564804077
0.8396390676498413
0.8395770788192749
0.8395150899887085
0.8395713567733765
0.8396276235580444
0.8396838903427124
0.8397401571273804
0.8397582769393921
0.8397763967514038
0.8397945165634155
0.8398126363754272
0.8398441076278687
0.8398755788803101
0.8399070501327515
0.8399385213851929
0.8399976491928101
0.8400567770004272
0.8401159048080444
0.8401750326156616
0.8401826620101929
0.8401902914047241
0.8401979207992554
0.8402055501937866
0.8401950597763062
0.8401845693588257
0.8401740789413452
0.8401635885238647
0.8401798009872437
0.8401960134506226
0.8402122259140015
0.8402284383773804
0.8402227163314819
0.8402169942855835
0.8402112722396851
0.8402055501937866
0.8402169942855835
0.8402284383773804
0.8402398824691772
0.8402513265609741
0.8402398824691772
0.8402284383773804
0.8402169942855835
0.8402055501937866
0.8402351140975952
0.8402646780014038
0.8402942419052124
0.840323805809021
0.8402808904647827
0.8402379751205444
0.8401950597763062
0.8401521444320679
0.8401550054550171
0.8401578664779663
0.8401607275009155
0.8401635885238647
0.840166449546814
0.8401693105697632
0.8401721715927124
0.8401750326156616
0.8402475118637085
0.8403199911117554
0.8403924703598022
0.8404649496078491
0.8404849767684937
0.8405050039291382
0.8405250310897827
0.8405450582504272
0.8404868841171265
0.8404287099838257
0.8403705358505249
0.8403123617172241
0.8403009176254272
0.8402894735336304
0.8402780294418335
0.8402665853500366
0.8401616811752319
0.8400567770004272
0.8399518728256226
0.8398469686508179
0.8398393392562866
0.8398317098617554
0.8398240804672241
0.8398164510726929
0.8398088216781616
0.8398011922836304
0.8397935628890991
0.8397859334945679
0.8397897481918335
0.8397935628890991
0.8397973775863647
0.8398011922836304
0.8397992849349976
0.8397973775863647
0.8397954702377319
0.8397935628890991
0.8397620916366577
0.8397306203842163
0.8396991491317749
0.8396676778793335
0.8395932912826538
0.8395189046859741
0.8394445180892944
0.8393701314926147
0.8393892049789429
0.839408278465271
0.8394273519515991
0.8394464254379272
0.8393701314926147
0.8392938375473022
0.8392175436019897
0.8391412496566772
0.8391317129135132
0.8391221761703491
0.8391126394271851
0.839103102684021
0.8391135931015015
0.8391240835189819
0.8391345739364624
0.8391450643539429
0.8391841650009155
0.8392232656478882
0.8392623662948608
0.8393014669418335
0.8393014669418335
0.8393014669418335
0.8393014669418335
0.8393014669418335
0.8393386602401733
0.8393758535385132
0.839413046836853
0.8394502401351929
0.8394101858139038
0.8393701314926147
0.8393300771713257
0.8392900228500366
0.839255690574646
0.8392213582992554
0.8391870260238647
0.8391526937484741
0.8391698598861694
0.8391870260238647
0.8392041921615601
0.8392213582992554
0.839250922203064
0.8392804861068726
0.8393100500106812
0.8393396139144897
0.8393510580062866
0.8393625020980835
0.8393739461898804
0.8393853902816772
0.8393338918685913
0.8392823934555054
0.8392308950424194
0.8391793966293335
0.8391088247299194
0.8390382528305054
0.8389676809310913
0.8388971090316772
0.8388570547103882
0.8388170003890991
0.8387769460678101
0.838736891746521
0.8387054204940796
0.8386739492416382
0.8386424779891968
0.8386110067367554
0.8385518789291382
0.838492751121521
0.8384336233139038
0.8383744955062866
0.8383649587631226
0.8383554220199585
0.8383458852767944
0.8383363485336304
0.8383430242538452
0.8383496999740601
0.8383563756942749
0.8383630514144897
0.8384593725204468
0.8385556936264038
0.8386520147323608
0.8387483358383179
0.8387759923934937
0.8388036489486694
0.8388313055038452
0.838858962059021
0.8388704061508179
0.8388818502426147
0.8388932943344116
0.8389047384262085
0.8388913869857788
0.8388780355453491
0.8388646841049194
0.8388513326644897
0.8388885259628296
0.8389257192611694
0.8389629125595093
0.8390001058578491
0.8390287160873413
0.8390573263168335
0.8390859365463257
0.8391145467758179
0.8391002416610718
0.8390859365463257
0.8390716314315796
0.8390573263168335
0.8390706777572632
0.8390840291976929
0.8390973806381226
0.8391107320785522
0.8390821218490601
0.8390535116195679
0.8390249013900757
0.8389962911605835
0.8390077352523804
0.8390191793441772
0.8390306234359741
0.839042067527771
0.8389924764633179
0.8389428853988647
0.8388932943344116
0.8388437032699585
0.8388503789901733
0.8388570547103882
0.838863730430603
0.8388704061508179
0.838924765586853
0.8389791250228882
0.8390334844589233
0.8390878438949585
0.8391574621200562
0.8392270803451538
0.8392966985702515
0.8393663167953491
0.8394111394882202
0.8394559621810913
0.8395007848739624
0.8395456075668335
0.8395360708236694
0.8395265340805054
0.8395169973373413
0.8395074605941772
0.8395198583602905
0.8395322561264038
0.8395446538925171
0.8395570516586304
0.8394225835800171
0.8392881155014038
0.8391536474227905
0.8390191793441772
0.8390277624130249
0.8390363454818726
0.8390449285507202
0.8390535116195679
0.8390210866928101
0.8389886617660522
0.8389562368392944
0.8389238119125366
0.8389161825180054
0.8389085531234741
0.8389009237289429
0.8388932943344116
0.8388818502426147
0.8388704061508179
0.838858962059021
0.8388475179672241
0.8388580083847046
0.8388684988021851
0.8388789892196655
0.838889479637146
0.8388770818710327
0.8388646841049194
0.8388522863388062
0.8388398885726929
0.8388150930404663
0.8387902975082397
0.8387655019760132
0.8387407064437866
0.8386892080307007
0.8386377096176147
0.8385862112045288
0.8385347127914429
0.838462233543396
0.8383897542953491
0.8383172750473022
0.8382447957992554
0.8381904363632202
0.8381360769271851
0.8380817174911499
0.8380273580551147
0.8380330801010132
0.8380388021469116
0.8380445241928101
0.8380502462387085
0.8380006551742554
0.8379510641098022
0.8379014730453491
0.837851881980896
0.8377727270126343
0.8376935720443726
0.8376144170761108
0.8375352621078491
0.8375066518783569
0.8374780416488647
0.8374494314193726
0.8374208211898804
0.8374027013778687
0.8373845815658569
0.8373664617538452
0.8373483419418335
0.837358832359314
0.8373693227767944
0.8373798131942749
0.8373903036117554
0.8374150991439819
0.8374398946762085
0.8374646902084351
0.8374894857406616
0.8374837636947632
0.8374780416488647
0.8374723196029663
0.8374665975570679
0.8374103307723999
0.8373540639877319
0.837297797203064
0.837241530418396
0.8372186422348022
0.8371957540512085
0.8371728658676147
0.837149977684021
0.8371423482894897
0.8371347188949585
0.8371270895004272
0.837119460105896
0.8370908498764038
0.8370622396469116
0.8370336294174194
0.8370050191879272
0.8369916677474976
0.8369783163070679
0.8369649648666382
0.8369516134262085
0.8369439840316772
0.836936354637146
0.8369287252426147
0.8369210958480835
0.8368619680404663
0.8368028402328491
0.8367437124252319
0.8366845846176147
0.8367141485214233
0.8367437124252319
0.8367732763290405
0.8368028402328491
0.8367666006088257
0.8367303609848022
0.8366941213607788
0.8366578817367554
0.8367141485214233
0.8367704153060913
0.8368266820907593
0.8368829488754272
0.8368543386459351
0.8368257284164429
0.8367971181869507
0.8367685079574585
0.8367761373519897
0.836783766746521
0.8367913961410522
0.8367990255355835
0.8367627859115601
0.8367265462875366
0.8366903066635132
0.8366540670394897
0.836544394493103
0.8364347219467163
0.8363250494003296
0.8362153768539429
0.8361524343490601
0.8360894918441772
0.8360265493392944
0.8359636068344116
0.8359330892562866
0.8359025716781616
0.8358720541000366
0.8358414769172668
0.8358319401741028
0.8358224034309387
0.8358128666877747
0.8358033299446106
0.8357575535774231
0.8357117772102356
0.8356660008430481
0.8356202244758606
0.8356240391731262
0.8356278538703918
0.8356316685676575
0.8356354832649231
0.8356478810310364
0.8356602787971497
0.8356726765632629
0.8356850743293762
0.8357413411140442
0.8357976078987122
0.8358538746833801
0.8359101414680481
0.8359254002571106
0.8359406590461731
0.8359559178352356
0.8359712362289429
0.8360141515731812
0.8360570669174194
0.8360999822616577
0.836142897605896
0.8362115621566772
0.8362802267074585
0.8363488912582397
0.836417555809021
0.8363879919052124
0.8363584280014038
0.8363288640975952
0.8362993001937866
0.8362725973129272
0.8362458944320679
0.8362191915512085
0.8361924886703491
0.8361238241195679
0.8360551595687866
0.8359864950180054
0.8359177708625793
0.8358901143074036
0.8358624577522278
0.835834801197052
0.8358071446418762
0.8357394337654114
0.8356717228889465
0.8356040120124817
0.8355363011360168
0.8355429768562317
0.8355496525764465
0.8355563282966614
0.8355630040168762
0.8355401158332825
0.8355172276496887
0.835494339466095
0.8354714512825012
0.8355172276496887
0.8355630040168762
0.8356087803840637
0.8356545567512512
0.8356612324714661
0.8356679081916809
0.8356745839118958
0.8356812596321106
0.83558589220047
0.8354905247688293
0.8353951573371887
0.8352997899055481
0.8352273106575012
0.8351548314094543
0.8350823521614075
0.8350098729133606
0.8349822163581848
0.834954559803009
0.8349269032478333
0.8348992466926575
0.8349478840827942
0.8349965214729309
0.8350451588630676
0.8350937962532043
0.8351300358772278
0.8351662755012512
0.8352025151252747
0.8352387547492981
0.835290253162384
0.83534175157547
0.8353932499885559
0.8354447484016418
0.8354628682136536
0.8354809880256653
0.835499107837677
0.8355172276496887
0.8355754017829895
0.8356335759162903
0.8356917500495911
0.8357499241828918
0.8357537388801575
0.8357575535774231
0.8357613682746887
0.8357651829719543
0.8357718586921692
0.835778534412384
0.8357852101325989
0.8357918858528137
0.8358138203620911
0.8358357548713684
0.8358576893806458
0.8358796238899231
0.8358157277107239
0.8357518315315247
0.8356879353523254
0.8356240391731262
0.8356059193611145
0.8355877995491028
0.8355696797370911
0.8355515599250793
0.8355115056037903
0.8354714512825012
0.8354313969612122
0.8353913426399231
0.8353531956672668
0.8353150486946106
0.8352769017219543
0.8352387547492981
0.8352177739143372
0.8351967930793762
0.8351758122444153
0.8351548314094543
0.8351605534553528
0.8351662755012512
0.8351719975471497
0.8351777195930481
0.835163414478302
0.8351491093635559
0.8351348042488098
0.8351204991340637
0.8350642323493958
0.8350079655647278
0.8349516987800598
0.8348954319953918
0.8348715901374817
0.8348477482795715
0.8348239064216614
0.8348000645637512
0.8348258137702942
0.8348515629768372
0.8348773121833801
0.8349030613899231
0.8348773121833801
0.8348515629768372
0.8348258137702942
0.8348000645637512
0.8348162770271301
0.834832489490509
0.8348487019538879
0.8348649144172668
0.834863007068634
0.8348610997200012
0.8348591923713684
0.8348572850227356
0.8348525166511536
0.8348477482795715
0.8348429799079895
0.8348382115364075
0.8347800374031067
0.8347218632698059
0.8346636891365051
0.8346055150032043
0.8346131443977356
0.8346207737922668
0.8346284031867981
0.8346360325813293
0.8346179127693176
0.8345997929573059
0.8345816731452942
0.8345635533332825
0.8345749974250793
0.8345864415168762
0.8345978856086731
0.83460932970047
0.8345921635627747
0.8345749974250793
0.834557831287384
0.8345406651496887
0.8345139622688293
0.83448725938797
0.8344605565071106
0.8344338536262512
0.8344157338142395
0.8343976140022278
0.8343794941902161
0.8343613743782043
0.8343499302864075
0.8343384861946106
0.8343270421028137
0.8343155980110168
0.8343327641487122
0.8343499302864075
0.8343670964241028
0.8343842625617981
0.8343518376350403
0.8343194127082825
0.8342869877815247
0.8342545628547668
0.8342774510383606
0.8343003392219543
0.8343232274055481
0.8343461155891418
0.834278404712677
0.8342106938362122
0.8341429829597473
0.8340752720832825
0.8340619206428528
0.8340485692024231
0.8340352177619934
0.8340218663215637
0.8340685963630676
0.8341153264045715
0.8341620564460754
0.8342087864875793
0.8342297673225403
0.8342507481575012
0.8342717289924622
0.8342927098274231
0.8342955708503723
0.8342984318733215
0.8343012928962708
0.83430415391922
0.8343051075935364
0.8343060612678528
0.8343070149421692
0.8343079686164856
0.8342812657356262
0.8342545628547668
0.8342278599739075
0.8342011570930481
0.8340933918952942
0.8339856266975403
0.8338778614997864
0.8337700963020325
0.8337634205818176
0.8337567448616028
0.8337500691413879
0.8337433934211731
0.833764374256134
0.833785355091095
0.8338063359260559
0.8338273167610168
0.8338568806648254
0.833886444568634
0.8339160084724426
0.8339455723762512
0.8339856266975403
0.8340256810188293
0.8340657353401184
0.8341057896614075
0.8341172337532043
0.8341286778450012
0.8341401219367981
0.834151566028595
0.8340781331062317
0.8340047001838684
0.8339312672615051
0.8338578343391418
0.8338606953620911
0.8338635563850403
0.8338664174079895
0.8338692784309387
0.8339055180549622
0.8339417576789856
0.833977997303009
0.8340142369270325
0.8340228199958801
0.8340314030647278
0.8340399861335754
0.8340485692024231
0.8340323567390442
0.8340161442756653
0.8339999318122864
0.8339837193489075
0.8339875340461731
0.8339913487434387
0.8339951634407043
0.83399897813797
0.83399897813797
0.83399897813797
0.83399897813797
0.83399897813797
0.8340466618537903
0.8340943455696106
0.8341420292854309
0.8341897130012512
0.8341658711433411
0.8341420292854309
0.8341181874275208
0.8340943455696106
0.8341496586799622
0.8342049717903137
0.8342602849006653
0.8343155980110168
0.8342869877815247
0.8342583775520325
0.8342297673225403
0.8342011570930481
0.8341467976570129
0.8340924382209778
0.8340380787849426
0.8339837193489075
0.83393794298172
0.8338921666145325
0.833846390247345
0.8338006138801575
0.8338549733161926
0.8339093327522278
0.8339636921882629
0.8340180516242981
0.8340447545051575
0.8340714573860168
0.8340981602668762
0.8341248631477356
0.8341353535652161
0.8341458439826965
0.834156334400177
0.8341668248176575
0.8341687321662903
0.8341706395149231
0.8341725468635559
0.8341744542121887
0.8342640995979309
0.8343537449836731
0.8344433903694153
0.8345330357551575
0.8345769047737122
0.8346207737922668
0.8346646428108215
0.8347085118293762
0.8347342610359192
0.8347600102424622
0.8347857594490051
0.8348115086555481
0.834863007068634
0.83491450548172
0.8349660038948059
0.8350175023078918
0.8350451588630676
0.8350728154182434
0.8351004719734192
0.835128128528595
0.8351176381111145
0.835107147693634
0.8350966572761536
0.8350861668586731
0.8350175023078918
0.8349488377571106
0.8348801732063293
0.8348115086555481
0.8348496556282043
0.8348878026008606
0.8349259495735168
0.8349640965461731
0.8349478840827942
0.8349316716194153
0.8349154591560364
0.8348992466926575
0.8349583745002747
0.8350175023078918
0.835076630115509
0.8351357579231262
0.8351815342903137
0.8352273106575012
0.8352730870246887
0.8353188633918762
0.8353131413459778
0.8353074193000793
0.8353016972541809
0.8352959752082825
0.8353694081306458
0.835442841053009
0.8355162739753723
0.8355897068977356
0.8355687260627747
0.8355477452278137
0.8355267643928528
0.8355057835578918
0.8355410695075989
0.8355763554573059
0.8356116414070129
0.83564692735672
0.8356373906135559
0.8356278538703918
0.8356183171272278
0.8356087803840637
0.8356049656867981
0.8356011509895325
0.8355973362922668
0.8355935215950012
0.8355877995491028
0.8355820775032043
0.8355763554573059
0.8355706334114075
0.8355582356452942
0.8355458378791809
0.8355334401130676
0.8355210423469543
0.8354867100715637
0.8354523777961731
0.8354180455207825
0.8353837132453918
0.8353751301765442
0.8353665471076965
0.8353579640388489
0.8353493809700012
0.8353589177131653
0.8353684544563293
0.8353779911994934
0.8353875279426575
0.8354142308235168
0.8354409337043762
0.8354676365852356
0.835494339466095
0.8355591893196106
0.8356240391731262
0.8356888890266418
0.8357537388801575
0.8357842564582825
0.8358147740364075
0.8358452916145325
0.8358758091926575
0.8359425663948059
0.8360093235969543
0.8360760807991028
0.836142897605896
0.8361486196517944
0.8361543416976929
0.8361600637435913
0.8361657857894897
0.8362077474594116
0.8362497091293335
0.8362916707992554
0.8363336324691772
0.8363775014877319
0.8364213705062866
0.8364652395248413
0.836509108543396
0.8365386724472046
0.8365682363510132
0.8365978002548218
0.8366273641586304
0.8366531133651733
0.8366788625717163
0.8367046117782593
0.8367303609848022
0.8367408514022827
0.8367513418197632
0.8367618322372437
0.8367723226547241
0.8367999792098999
0.8368276357650757
0.8368552923202515
0.8368829488754272
0.8368247747421265
0.8367666006088257
0.8367084264755249
0.8366502523422241
0.8366559743881226
0.836661696434021
0.8366674184799194
0.8366731405258179
0.8367246389389038
0.8367761373519897
0.8368276357650757
0.8368791341781616
0.8369029760360718
0.8369268178939819
0.8369506597518921
0.8369745016098022
0.8369687795639038
0.8369630575180054
0.8369573354721069
0.8369516134262085
0.8369220495223999
0.8368924856185913
0.8368629217147827
0.8368333578109741
0.8368571996688843
0.8368810415267944
0.8369048833847046
0.8369287252426147
0.8369334936141968
0.8369382619857788
0.8369430303573608
0.8369477987289429
0.8369601964950562
0.8369725942611694
0.8369849920272827
0.836997389793396
0.8370507955551147
0.8371042013168335
0.8371576070785522
0.837211012840271
0.8372215032577515
0.8372319936752319
0.8372424840927124
0.8372529745101929
0.8372739553451538
0.8372949361801147
0.8373159170150757
0.8373368978500366
0.8373454809188843
0.8373540639877319
0.8373626470565796
0.8373712301254272
0.8373502492904663
0.8373292684555054
0.8373082876205444
0.8372873067855835
0.8372730016708374
0.8372586965560913
0.8372443914413452
0.8372300863265991
0.8372424840927124
0.8372548818588257
0.837267279624939
0.8372796773910522
0.8372882604598999
0.8372968435287476
0.8373054265975952
0.8373140096664429
0.8373407125473022
0.8373674154281616
0.837394118309021
0.8374208211898804
0.8374236822128296
0.8374265432357788
0.837429404258728
0.8374322652816772
0.8374055624008179
0.8373788595199585
0.8373521566390991
0.8373254537582397
0.8372548818588257
0.8371843099594116
0.8371137380599976
0.8370431661605835
0.8370116949081421
0.8369802236557007
0.8369487524032593
0.8369172811508179
0.8368390798568726
0.8367608785629272
0.8366826772689819
0.8366044759750366
0.8365710973739624
0.8365377187728882
0.836504340171814
0.8364709615707397
0.8364642858505249
0.8364576101303101
0.8364509344100952
0.8364442586898804
0.836504340171814
0.8365644216537476
0.8366245031356812
0.8366845846176147
0.8366693258285522
0.8366540670394897
0.8366388082504272
0.8366235494613647
0.836626410484314
0.8366292715072632
0.8366321325302124
0.8366349935531616
0.8365577459335327
0.8364804983139038
0.8364032506942749
0.836326003074646
0.8363126516342163
0.8362993001937866
0.8362859487533569
0.8362725973129272
0.8362478017807007
0.8362230062484741
0.8361982107162476
0.836173415184021
0.8361800909042358
0.8361867666244507
0.8361934423446655
0.8362001180648804
0.8362334966659546
0.8362668752670288
0.836300253868103
0.8363336324691772
0.8362735509872437
0.8362134695053101
0.8361533880233765
0.8360933065414429
0.8360408544540405
0.8359884023666382
0.8359359502792358
0.8358834385871887
0.8358843922615051
0.8358853459358215
0.8358862996101379
0.8358872532844543
0.8358815312385559
0.8358758091926575
0.835870087146759
0.8358643651008606
0.8358424305915833
0.8358204960823059
0.8357985615730286
0.8357766270637512
0.8357775807380676
0.835778534412384
0.8357794880867004
0.8357804417610168
0.8356879353523254
0.835595428943634
0.8355029225349426
0.8354104161262512
0.83534175157547
0.8352730870246887
0.8352044224739075
0.8351357579231262
0.8350747227668762
0.8350136876106262
0.8349526524543762
0.8348916172981262
0.8349469304084778
0.8350022435188293
0.8350575566291809
0.8351128697395325
0.8350804448127747
0.8350480198860168
0.835015594959259
0.8349831700325012
0.8349583745002747
0.8349335789680481
0.8349087834358215
0.834883987903595
0.8348487019538879
0.8348134160041809
0.8347781300544739
0.8347428441047668
0.8347828984260559
0.834822952747345
0.834863007068634
0.8349030613899231
0.8348801732063293
0.8348572850227356
0.8348343968391418
0.8348115086555481
0.8348143696784973
0.8348172307014465
0.8348200917243958
0.834822952747345
0.8347685933113098
0.8347142338752747
0.8346598744392395
0.8346055150032043
0.8346455693244934
0.8346856236457825
0.8347256779670715
0.8347657322883606
0.8348239064216614
0.8348820805549622
0.8349402546882629
0.8349984288215637
0.8349974751472473
0.8349965214729309
0.8349955677986145
0.8349946141242981
0.8349745869636536
0.834954559803009
0.8349345326423645
0.83491450548172
0.8349621891975403
0.8350098729133606
0.8350575566291809
0.8351052403450012
0.8351834416389465
0.8352616429328918
0.8353398442268372
0.8354180455207825
0.835412323474884
0.8354066014289856
0.8354008793830872
0.8353951573371887
0.8353884816169739
0.835381805896759
0.8353751301765442
0.8353684544563293
0.8354151844978333
0.8354619145393372
0.8355086445808411
0.835555374622345
0.8355782628059387
0.8356011509895325
0.8356240391731262
0.83564692735672
0.8356545567512512
0.8356621861457825
0.8356698155403137
0.835677444934845
0.8357232213020325
0.83576899766922
0.8358147740364075
0.835860550403595
0.835865318775177
0.835870087146759
0.8358748555183411
0.8358796238899231
0.8358824849128723
0.8358853459358215
0.8358882069587708
0.83589106798172
0.8359139561653137
0.8359368443489075
0.8359597325325012
0.8359826803207397
0.8359807729721069
0.8359788656234741
0.8359769582748413
0.8359750509262085
0.8360065221786499
0.8360379934310913
0.8360694646835327
0.8361009359359741
0.8361400365829468
0.8361791372299194
0.8362182378768921
0.8362573385238647
0.8362811803817749
0.8363050222396851
0.8363288640975952
0.8363527059555054
0.8363898992538452
0.8364270925521851
0.8364642858505249
0.8365014791488647
0.836574912071228
0.8366483449935913
0.8367217779159546
0.8367952108383179
0.8368791341781616
0.8369630575180054
0.8370469808578491
0.8371309041976929
0.8371556997299194
0.837180495262146
0.8372052907943726
0.8372300863265991
0.8372911214828491
0.8373521566390991
0.8374131917953491
0.8374742269515991
0.8375447988510132
0.8376153707504272
0.8376859426498413
0.8377565145492554
0.8377574682235718
0.8377584218978882
0.8377593755722046
0.837760329246521
0.8377975225448608
0.8378347158432007
0.8378719091415405
0.8379091024398804
0.8379329442977905
0.8379567861557007
0.8379806280136108
0.838004469871521
0.8379987478256226
0.8379930257797241
0.8379873037338257
0.8379815816879272
0.8380101919174194
0.8380388021469116
0.8380674123764038
0.838096022605896
0.8381789922714233
0.8382619619369507
0.838344931602478
0.8384279012680054
0.8384469747543335
0.8384660482406616
0.8384851217269897
0.8385041952133179
0.8385823965072632
0.8386605978012085
0.8387387990951538
0.8388170003890991
0.8387817144393921
0.8387464284896851
0.838711142539978
0.838675856590271
0.8386644124984741
0.8386529684066772
0.8386415243148804
0.8386300802230835
0.8386310338973999
0.8386319875717163
0.8386329412460327
0.8386338949203491
0.838619589805603
0.8386052846908569
0.8385909795761108
0.8385766744613647
0.8385957479476929
0.838614821434021
0.8386338949203491
0.8386529684066772
0.8386348485946655
0.8386167287826538
0.8385986089706421
0.8385804891586304
0.8385766744613647
0.8385728597640991
0.8385690450668335
0.8385652303695679
0.8385022878646851
0.8384393453598022
0.8383764028549194
0.8383134603500366
0.838248610496521
0.8381837606430054
0.8381189107894897
0.8380540609359741
0.8380569219589233
0.8380597829818726
0.8380626440048218
0.838065505027771
0.8380159139633179
0.8379663228988647
0.8379167318344116
0.8378671407699585
0.8378232717514038
0.8377794027328491
0.8377355337142944
0.8376916646957397
0.8376392126083374
0.8375867605209351
0.8375343084335327
0.8374818563461304
0.8374885320663452
0.8374952077865601
0.8375018835067749
0.8375085592269897
0.8375018835067749
0.8374952077865601
0.8374885320663452
0.8374818563461304
0.8375066518783569
0.8375314474105835
0.8375562429428101
0.8375810384750366
0.8375924825668335
0.8376039266586304
0.8376153707504272
0.8376268148422241
0.8377002477645874
0.8377736806869507
0.837847113609314
0.8379205465316772
0.8379777669906616
0.838034987449646
0.8380922079086304
0.8381494283676147
0.838182806968689
0.8382161855697632
0.8382495641708374
0.8382829427719116
0.8382028341293335
0.8381227254867554
0.8380426168441772
0.8379625082015991
0.8379577398300171
0.8379529714584351
0.837948203086853
0.837943434715271
0.8378785848617554
0.8378137350082397
0.8377488851547241
0.8376840353012085
0.8376439809799194
0.8376039266586304
0.8375638723373413
0.8375238180160522
0.837450385093689
0.8373769521713257
0.8373035192489624
0.8372300863265991
0.8371299505233765
0.8370298147201538
0.8369296789169312
0.8368295431137085
0.8367847204208374
0.8367398977279663
0.8366950750350952
0.8366502523422241
0.8366235494613647
0.8365968465805054
0.836570143699646
0.8365434408187866
0.8365539312362671
0.8365644216537476
0.836574912071228
0.8365854024887085
0.8365911245346069
0.8365968465805054
0.8366025686264038
0.8366082906723022
0.8366626501083374
0.8367170095443726
0.8367713689804077
0.8368257284164429
0.8368571996688843
0.8368886709213257
0.8369201421737671
0.8369516134262085
0.8369630575180054
0.8369745016098022
0.8369859457015991
0.836997389793396
0.837032675743103
0.8370679616928101
0.8371032476425171
0.8371385335922241
0.8371671438217163
0.8371957540512085
0.8372243642807007
0.8372529745101929
0.8373702764511108
0.8374875783920288
0.8376048803329468
0.8377221822738647
0.8378022909164429
0.837882399559021
0.8379625082015991
0.8380426168441772
0.8381341695785522
0.8382257223129272
0.8383172750473022
0.8384088277816772
0.8384832143783569
0.8385576009750366
0.8386319875717163
0.838706374168396
0.838711142539978
0.8387159109115601
0.8387206792831421
0.8387254476547241
0.8387283086776733
0.8387311697006226
0.8387340307235718
0.838736891746521
0.8386596441268921
0.8385823965072632
0.8385051488876343
0.8384279012680054
0.8383601903915405
0.8382924795150757
0.8382247686386108
0.838157057762146
0.8380626440048218
0.8379682302474976
0.8378738164901733
0.8377794027328491
0.8377012014389038
0.8376230001449585
0.8375447988510132
0.8374665975570679
0.837450385093689
0.8374341726303101
0.8374179601669312
0.8374017477035522
0.8374170064926147
0.8374322652816772
0.8374475240707397
0.8374627828598022
0.8374656438827515
0.8374685049057007
0.8374713659286499
0.8374742269515991
0.8374789953231812
0.8374837636947632
0.8374885320663452
0.8374933004379272
0.8374990224838257
0.8375047445297241
0.8375104665756226
0.837516188621521
0.8375123739242554
0.8375085592269897
0.8375047445297241
0.8375009298324585
0.8374913930892944
0.8374818563461304
0.8374723196029663
0.8374627828598022
0.8374675512313843
0.8374723196029663
0.8374770879745483
0.8374818563461304
0.837450385093689
0.8374189138412476
0.8373874425888062
0.8373559713363647
0.8372825384140015
0.8372091054916382
0.8371356725692749
0.8370622396469116
0.8369430303573608
0.8368238210678101
0.8367046117782593
0.8365854024887085
0.8365510702133179
0.8365167379379272
0.8364824056625366
0.836448073387146
0.8363736867904663
0.8362993001937866
0.8362249135971069
0.8361505270004272
0.8360856771469116
0.836020827293396
0.8359559774398804
0.83589106798172
0.8358109593391418
0.8357308506965637
0.8356507420539856
0.8355706334114075
0.8354771733283997
0.8353837132453918
0.835290253162384
0.8351967930793762
0.8351729512214661
0.8351491093635559
0.8351252675056458
0.8351014256477356
0.8350918889045715
0.8350823521614075
0.8350728154182434
0.8350632786750793
0.8351672291755676
0.8352711796760559
0.8353751301765442
0.8354790806770325
0.8355382084846497
0.8355973362922668
0.835656464099884
0.8357155919075012
0.8358414769172668
0.8359673619270325
0.8360932469367981
0.8362191915512085
0.836260199546814
0.8363012075424194
0.8363422155380249
0.8363832235336304
0.8364690542221069
0.8365548849105835
0.8366407155990601
0.8367265462875366
0.8367933034896851
0.8368600606918335
0.8369268178939819
0.8369935750961304
0.8370689153671265
0.8371442556381226
0.8372195959091187
0.8372949361801147
0.8372939825057983
0.8372930288314819
0.8372920751571655
0.8372911214828491
0.8372482061386108
0.8372052907943726
0.8371623754501343
0.837119460105896
0.8370651006698608
0.8370107412338257
0.8369563817977905
0.8369020223617554
0.8368877172470093
0.8368734121322632
0.8368591070175171
0.836844801902771
0.8368209600448608
0.8367971181869507
0.8367732763290405
0.8367494344711304
0.8367561101913452
0.8367627859115601
0.8367694616317749
0.8367761373519897
0.836748480796814
0.8367208242416382
0.8366931676864624
0.8366655111312866
0.8366283178329468
0.8365911245346069
0.8365539312362671
0.8365167379379272
0.8364623785018921
0.8364080190658569
0.8363536596298218
0.8362993001937866
0.8361848592758179
0.8360704183578491
0.8359559774398804
0.8358414769172668
0.8358834385871887
0.8359254002571106
0.8359673619270325
0.8360093832015991
0.8360036611557007
0.8359979391098022
0.8359922170639038
0.8359864950180054
0.8359311819076538
0.8358758687973022
0.8358205556869507
0.8357651829719543
0.8358061909675598
0.8358471989631653
0.8358882069587708
0.8359292149543762
0.8359244465827942
0.8359196782112122
0.8359149098396301
0.8359101414680481
0.8359358906745911
0.835961639881134
0.835987389087677
0.8360131978988647
0.8360809087753296
0.8361486196517944
0.8362163305282593
0.8362840414047241
0.8363279104232788
0.8363717794418335
0.8364156484603882
0.8364595174789429
0.8364919424057007
0.8365243673324585
0.8365567922592163
0.8365892171859741
0.8366035223007202
0.8366178274154663
0.8366321325302124
0.8366464376449585
0.8366349935531616
0.8366235494613647
0.8366121053695679
0.836600661277771
0.8365796804428101
0.8365586996078491
0.8365377187728882
0.8365167379379272
0.8364242315292358
0.8363317251205444
0.836239218711853
0.8361467123031616
0.8361314535140991
0.8361161947250366
0.8361009359359741
0.8360856771469116
0.8360570669174194
0.8360284566879272
0.8359998464584351
0.8359712362289429
0.8359912633895874
0.8360112905502319
0.8360313177108765
0.836051344871521
0.8360942602157593
0.8361371755599976
0.8361800909042358
0.8362230062484741
0.8362067937850952
0.8361905813217163
0.8361743688583374
0.8361581563949585
0.8361753225326538
0.8361924886703491
0.8362096548080444
0.8362268209457397
0.8362458944320679
0.836264967918396
0.8362840414047241
0.8363031148910522
0.8363269567489624
0.8363507986068726
0.8363746404647827
0.8363984823226929
0.8364232778549194
0.836448073387146
0.8364728689193726
0.8364976644515991
0.8365586996078491
0.8366197347640991
0.8366807699203491
0.8367418050765991
0.8368610143661499
0.8369802236557007
0.8370994329452515
0.8372186422348022
0.8371824026107788
0.8371461629867554
0.8371099233627319
0.8370736837387085
0.8370870351791382
0.8371003866195679
0.8371137380599976
0.8371270895004272
0.8370860815048218
0.8370450735092163
0.8370040655136108
0.8369630575180054
0.8369401693344116
0.8369172811508179
0.8368943929672241
0.8368715047836304
0.8367666006088257
0.836661696434021
0.8365567922592163
0.8364518880844116
0.8363698720932007
0.8362878561019897
0.8362058401107788
0.8361238241195679
0.8360656499862671
0.8360074758529663
0.8359493017196655
0.83589106798172
0.8358328938484192
0.8357747197151184
0.8357165455818176
0.8356583714485168
0.8356240391731262
0.8355897068977356
0.835555374622345
0.8355210423469543
0.8355353474617004
0.8355496525764465
0.8355639576911926
0.8355782628059387
0.8355162739753723
0.8354542851448059
0.8353922963142395
0.8353303074836731
0.8353503346443176
0.8353703618049622
0.8353903889656067
0.8354104161262512
0.8354151844978333
0.8354199528694153
0.8354247212409973
0.8354294896125793
0.8355115056037903
0.8355935215950012
0.8356755375862122
0.8357575535774231
0.8358128666877747
0.8358681797981262
0.8359234929084778
0.8359788656234741
0.8360904455184937
0.8362020254135132
0.8363136053085327
0.8364251852035522
0.8363345861434937
0.8362439870834351
0.8361533880233765
0.8360627889633179
0.8360942602157593
0.8361257314682007
0.8361572027206421
0.8361886739730835
0.8362382650375366
0.8362878561019897
0.8363374471664429
0.836387038230896
0.8363145589828491
0.8362420797348022
0.8361696004867554
0.8360971212387085
0.8361276388168335
0.8361581563949585
0.8361886739730835
0.8362191915512085
0.8362230062484741
0.8362268209457397
0.8362306356430054
0.836234450340271
0.8362220525741577
0.8362096548080444
0.8361972570419312
0.8361848592758179
0.836168646812439
0.8361524343490601
0.8361362218856812
0.8361200094223022
0.8361581563949585
0.8361963033676147
0.836234450340271
0.8362725973129272
0.836290717124939
0.8363088369369507
0.8363269567489624
0.8363450765609741
0.8363021612167358
0.8362592458724976
0.8362163305282593
0.836173415184021
0.8361152410507202
0.8360570669174194
0.8359988927841187
0.8359407186508179
0.8358339071273804
0.8357270956039429
0.8356202840805054
0.8355134129524231
0.8354724049568176
0.8354313969612122
0.8353903889656067
0.8353493809700012
0.8353341221809387
0.8353188633918762
0.8353036046028137
0.8352883458137512
0.8352845311164856
0.83528071641922
0.8352769017219543
0.8352730870246887
0.8353531956672668
0.835433304309845
0.8355134129524231
0.8355935215950012
0.8356040120124817
0.8356145024299622
0.8356249928474426
0.8356354832649231
0.8356536030769348
0.8356717228889465
0.8356898427009583
0.83570796251297
0.8356669545173645
0.835625946521759
0.8355849385261536
0.8355439305305481
0.8355162739753723
0.8354886174201965
0.8354609608650208
0.835433304309845
0.8353655934333801
0.8352978825569153
0.8352301716804504
0.8351624608039856
0.8351414799690247
0.8351204991340637
0.8350995182991028
0.8350785374641418
0.8350737690925598
0.8350690007209778
0.8350642323493958
0.8350594639778137
0.835046112537384
0.8350327610969543
0.8350194096565247
0.835006058216095
0.8349831700325012
0.8349602818489075
0.8349373936653137
0.83491450548172
0.8348668217658997
0.8348191380500793
0.834771454334259
0.8347237706184387
0.8347905278205872
0.8348572850227356
0.834924042224884
0.8349907994270325
0.8349993824958801
0.8350079655647278
0.8350165486335754
0.8350251317024231
0.8350451588630676
0.8350651860237122
0.8350852131843567
0.8351052403450012
0.8351014256477356
0.83509761095047
0.8350937962532043
0.8350899815559387
0.8350031971931458
0.8349164128303528
0.8348296284675598
0.8347428441047668
0.8346884846687317
0.8346341252326965
0.8345797657966614
0.8345254063606262
0.8345330357551575
0.8345406651496887
0.83454829454422
0.8345559239387512
0.8345473408699036
0.8345387578010559
0.8345301747322083
0.8345215916633606
0.8345196843147278
0.834517776966095
0.8345158696174622
0.8345139622688293
0.8345597386360168
0.8346055150032043
0.8346512913703918
0.8346970677375793
0.8347371220588684
0.8347771763801575
0.8348172307014465
0.8348572850227356
0.8348363041877747
0.8348153233528137
0.8347943425178528
0.8347733616828918
0.8348086476325989
0.8348439335823059
0.8348792195320129
0.83491450548172
0.8348715901374817
0.8348286747932434
0.8347857594490051
0.8347428441047668
0.8347428441047668
0.8347428441047668
0.8347428441047668
0.8347428441047668
0.8347676396369934
0.83479243516922
0.8348172307014465
0.8348420262336731
0.8348849415779114
0.8349278569221497
0.8349707722663879
0.8350136876106262
0.8350508809089661
0.8350880742073059
0.8351252675056458
0.8351624608039856
0.83515864610672
0.8351548314094543
0.8351510167121887
0.8351472020149231
0.8351834416389465
0.83521968126297
0.8352559208869934
0.8352921605110168
0.8353102803230286
0.8353284001350403
0.835346519947052
0.8353646397590637
0.8353837132453918
0.83540278673172
0.8354218602180481
0.8354409337043762
0.8354704976081848
0.8355000615119934
0.835529625415802
0.8355591893196106
0.8355086445808411
0.8354580998420715
0.835407555103302
0.8353570103645325
0.8353741765022278
0.8353913426399231
0.8354085087776184
0.8354256749153137
0.8354037404060364
0.835381805896759
0.8353598713874817
0.8353379368782043
0.8353684544563293
0.8353989720344543
0.8354294896125793
0.8354600071907043
0.8354828953742981
0.8355057835578918
0.8355286717414856
0.8355515599250793
0.8355401158332825
0.8355286717414856
0.8355172276496887
0.8355057835578918
0.8355124592781067
0.8355191349983215
0.8355258107185364
0.8355324864387512
0.8355334401130676
0.835534393787384
0.8355353474617004
0.8355363011360168
0.8355429768562317
0.8355496525764465
0.8355563282966614
0.8355630040168762
0.8355610966682434
0.8355591893196106
0.8355572819709778
0.835555374622345
0.8355830311775208
0.8356106877326965
0.8356383442878723
0.8356660008430481
0.8356030583381653
0.8355401158332825
0.8354771733283997
0.8354142308235168
0.8354228138923645
0.8354313969612122
0.8354399800300598
0.8354485630989075
0.8354809880256653
0.8355134129524231
0.8355458378791809
0.8355782628059387
0.8356068730354309
0.8356354832649231
0.8356640934944153
0.8356927037239075
0.8357241749763489
0.8357556462287903
0.8357871174812317
0.8358185887336731
0.8358319401741028
0.8358452916145325
0.8358586430549622
0.8358719944953918
0.835834801197052
0.8357976078987122
0.8357604146003723
0.8357232213020325
0.835717499256134
0.8357117772102356
0.8357060551643372
0.8357003331184387
0.8356841206550598
0.8356679081916809
0.835651695728302
0.8356354832649231
0.8356192708015442
0.8356030583381653
0.8355868458747864
0.8355706334114075
0.835564911365509
0.8355591893196106
0.8355534672737122
0.8355477452278137
0.8355687260627747
0.8355897068977356
0.8356106877326965
0.8356316685676575
0.8355715870857239
0.8355115056037903
0.8354514241218567
0.8353913426399231
0.835438072681427
0.8354848027229309
0.8355315327644348
0.8355782628059387
0.8355067372322083
0.8354352116584778
0.8353636860847473
0.8352921605110168
0.8351700901985168
0.8350480198860168
0.8349259495735168
0.8348038792610168
0.8346856236457825
0.8345673680305481
0.8344491124153137
0.8343308568000793
0.8342040181159973
0.8340771794319153
0.8339503407478333
0.8338235020637512
0.8336766362190247
0.8335297703742981
0.8333829045295715
0.833236038684845
0.8331597447395325
0.83308345079422
0.8330071568489075
0.832930862903595
0.8328889012336731
0.8328469395637512
0.8328049778938293
0.8327630162239075
0.8327000737190247
0.8326371312141418
0.832574188709259
0.8325112462043762
0.8325102925300598
0.8325093388557434
0.832508385181427
0.8325074315071106
0.8325503468513489
0.8325932621955872
0.8326361775398254
0.8326790928840637
0.8327544331550598
0.8328297734260559
0.832905113697052
0.8329804539680481
0.8330357670783997
0.8330910801887512
0.8331463932991028
0.8332017064094543
0.8332598805427551
0.8333180546760559
0.8333762288093567
0.8334344029426575
0.833520233631134
0.8336060643196106
0.8336918950080872
0.8337777256965637
0.8338177800178528
0.8338578343391418
0.8338978886604309
0.83393794298172
0.83399897813797
0.83406001329422
0.83412104845047
0.83418208360672
0.8342497944831848
0.8343175053596497
0.8343852162361145
0.8344529271125793
0.8345587849617004
0.8346646428108215
0.8347705006599426
0.8348763585090637
0.8348620533943176
0.8348477482795715
0.8348334431648254
0.8348191380500793
0.8348706364631653
0.8349221348762512
0.8349736332893372
0.8350251317024231
0.8351290822029114
0.8352330327033997
0.8353369832038879
0.8354409337043762
0.8354409337043762
0.8354409337043762
0.8354409337043762
0.8354409337043762
0.8355448842048645
0.8356488347053528
0.8357527852058411
0.8358567357063293
0.8359368443489075
0.8360169529914856
0.8360970616340637
0.8361772298812866
0.8363937139511108
0.8366101980209351
0.8368266820907593
0.8370431661605835
0.8371509313583374
0.8372586965560913
0.8373664617538452
0.8374742269515991
0.8375362157821655
0.8375982046127319
0.8376601934432983
0.8377221822738647
0.8377870321273804
0.837851881980896
0.8379167318344116
0.8379815816879272
0.8380664587020874
0.8381513357162476
0.8382362127304077
0.8383210897445679
0.8384813070297241
0.8386415243148804
0.8388017416000366
0.8389619588851929
0.8391393423080444
0.839316725730896
0.8394941091537476
0.8396714925765991
0.8398555517196655
0.8400396108627319
0.8402236700057983
0.8404077291488647
0.8406156301498413
0.8408235311508179
0.8410314321517944
0.841239333152771
0.841427206993103
0.8416150808334351
0.8418029546737671
0.8419908285140991
0.8420861959457397
0.8421815633773804
0.842276930809021
0.8423722982406616
0.842394232749939
0.8424161672592163
0.8424381017684937
0.842460036277771
0.8425334692001343
0.8426069021224976
0.8426803350448608
0.8427537679672241
0.8427804708480835
0.8428071737289429
0.8428338766098022
0.8428605794906616
0.8429187536239624
0.8429769277572632
0.843035101890564
0.8430932760238647
0.8431600332260132
0.8432267904281616
0.8432935476303101
0.8433603048324585
0.8433946371078491
0.8434289693832397
0.8434633016586304
0.843497633934021
0.8434528112411499
0.8434079885482788
0.8433631658554077
0.8433183431625366
0.8432992696762085
0.8432801961898804
0.8432611227035522
0.8432420492172241
0.8431762456893921
0.8431104421615601
0.843044638633728
0.842978835105896
0.8429464101791382
0.8429139852523804
0.8428815603256226
0.8428491353988647
0.8428319692611694
0.8428148031234741
0.8427976369857788
0.8427804708480835
0.8427709341049194
0.8427613973617554
0.8427518606185913
0.8427423238754272
0.8427242040634155
0.8427060842514038
0.8426879644393921
0.8426698446273804
0.8426641225814819
0.8426584005355835
0.8426526784896851
0.8426469564437866
0.8426040410995483
0.8425611257553101
0.8425182104110718
0.8424752950668335
0.8424533605575562
0.8424314260482788
0.8424094915390015
0.8423875570297241
0.8424085378646851
0.842429518699646
0.8424504995346069
0.8424714803695679
0.8424438238143921
0.8424161672592163
0.8423885107040405
0.8423608541488647
0.8423036336898804
0.842246413230896
0.8421891927719116
0.8421319723129272
0.8420995473861694
0.8420671224594116
0.8420346975326538
0.842002272605896
0.8419917821884155
0.8419812917709351
0.8419708013534546
0.8419603109359741
0.8420222997665405
0.8420842885971069
0.8421462774276733
0.8422082662582397
0.8422492742538452
0.8422902822494507
0.8423312902450562
0.8423722982406616
0.8423217535018921
0.8422712087631226
0.842220664024353
0.8421701192855835
0.8421205282211304
0.8420709371566772
0.8420213460922241
0.841971755027771
0.8419450521469116
0.8419183492660522
0.8418916463851929
0.8418649435043335
0.8418658971786499
0.8418668508529663
0.8418678045272827
0.8418687582015991
0.8418430089950562
0.8418172597885132
0.8417915105819702
0.8417657613754272
0.8417714834213257
0.8417772054672241
0.8417829275131226
0.841788649559021
0.8418334722518921
0.8418782949447632
0.8419231176376343
0.8419679403305054
0.8419727087020874
0.8419774770736694
0.8419822454452515
0.8419870138168335
0.8420175313949585
0.8420480489730835
0.8420785665512085
0.8421090841293335
0.8421252965927124
0.8421415090560913
0.8421577215194702
0.8421739339828491
0.8421729803085327
0.8421720266342163
0.8421710729598999
0.8421701192855835
0.8422101736068726
0.8422502279281616
0.8422902822494507
0.8423303365707397
0.8423618078231812
0.8423932790756226
0.842424750328064
0.8424562215805054
0.8425105810165405
0.8425649404525757
0.8426192998886108
0.842673659324646
0.8426803350448608
0.8426870107650757
0.8426936864852905
0.8427003622055054
0.842673659324646
0.8426469564437866
0.8426202535629272
0.8425935506820679
0.8426059484481812
0.8426183462142944
0.8426307439804077
0.842643141746521
0.842638373374939
0.8426336050033569
0.8426288366317749
0.8426240682601929
0.8426526784896851
0.8426812887191772
0.8427098989486694
0.8427385091781616
0.8427547216415405
0.8427709341049194
0.8427871465682983
0.8428033590316772
0.8428109884262085
0.8428186178207397
0.842826247215271
0.8428338766098022
0.8428205251693726
0.8428071737289429
0.8427938222885132
0.8427804708480835
0.8428014516830444
0.8428224325180054
0.8428434133529663
0.8428643941879272
0.8428968191146851
0.8429292440414429
0.8429616689682007
0.8429940938949585
0.8430513143539429
0.8431085348129272
0.8431657552719116
0.843222975730896
0.8432153463363647
0.8432077169418335
0.8432000875473022
0.843192458152771
0.8432716131210327
0.8433507680892944
0.8434299230575562
0.8435090780258179
0.8435701131820679
0.8436311483383179
0.8436921834945679
0.8437532186508179
0.8437913656234741
0.8438295125961304
0.8438676595687866
0.8439058065414429
0.8438733816146851
0.8438409566879272
0.8438085317611694
0.8437761068344116
0.8437494039535522
0.8437227010726929
0.8436959981918335
0.8436692953109741
0.8436836004257202
0.8436979055404663
0.8437122106552124
0.8437265157699585
0.8437103033065796
0.8436940908432007
0.8436778783798218
0.8436616659164429
0.8436101675033569
0.843558669090271
0.8435071706771851
0.8434556722640991
0.843431830406189
0.8434079885482788
0.8433841466903687
0.8433603048324585
0.8433727025985718
0.8433851003646851
0.8433974981307983
0.8434098958969116
0.8433488607406616
0.8432878255844116
0.8432267904281616
0.8431657552719116
0.8430894613265991
0.8430131673812866
0.8429368734359741
0.8428605794906616
0.8428319692611694
0.8428033590316772
0.8427747488021851
0.8427461385726929
0.8426545858383179
0.8425630331039429
0.8424714803695679
0.8423799276351929
0.8423055410385132
0.8422311544418335
0.8421567678451538
0.8420823812484741
0.8419946432113647
0.8419069051742554
0.841819167137146
0.8417314291000366
0.8417152166366577
0.8416990041732788
0.8416827917098999
0.841666579246521
0.8416856527328491
0.8417047262191772
0.8417237997055054
0.8417428731918335
0.8417896032333374
0.8418363332748413
0.8418830633163452
0.8419297933578491
0.8419688940048218
0.8420079946517944
0.8420470952987671
0.8420861959457397
0.8421462774276733
0.8422063589096069
0.8422664403915405
0.8423265218734741
0.8423160314559937
0.8423055410385132
0.8422950506210327
0.8422845602035522
0.8422559499740601
0.8422273397445679
0.8421987295150757
0.8421701192855835
0.8422082662582397
0.842246413230896
0.8422845602035522
0.8423227071762085
0.8422874212265015
0.8422521352767944
0.8422168493270874
0.8421815633773804
0.8421863317489624
0.8421911001205444
0.8421958684921265
0.8422006368637085
0.842119574546814
0.8420385122299194
0.8419574499130249
0.8418763875961304
0.8418315649032593
0.8417867422103882
0.8417419195175171
0.841697096824646
0.8416646718978882
0.8416322469711304
0.8415998220443726
0.8415673971176147
0.8415254354476929
0.841483473777771
0.8414415121078491
0.8413995504379272
0.8414233922958374
0.8414472341537476
0.8414710760116577
0.8414949178695679
0.8414310216903687
0.8413671255111694
0.8413032293319702
0.841239333152771
0.8411935567855835
0.841147780418396
0.8411020040512085
0.841056227684021
0.8410438299179077
0.8410314321517944
0.8410190343856812
0.8410066366195679
0.8410047292709351
0.8410028219223022
0.8410009145736694
0.8409990072250366
0.8410352468490601
0.8410714864730835
0.8411077260971069
0.8411439657211304
0.8410629034042358
0.8409818410873413
0.8409007787704468
0.8408197164535522
0.8407691717147827
0.8407186269760132
0.8406680822372437
0.8406175374984741
0.8406404256820679
0.8406633138656616
0.8406862020492554
0.8407090902328491
0.840654730796814
0.8406003713607788
0.8405460119247437
0.8404916524887085
0.8404344320297241
0.8403772115707397
0.8403199911117554
0.840262770652771
0.8402293920516968
0.8401960134506226
0.8401626348495483
0.8401292562484741
0.840145468711853
0.8401616811752319
0.8401778936386108
0.8401941061019897
0.8402055501937866
0.8402169942855835
0.8402284383773804
0.8402398824691772
0.840267539024353
0.8402951955795288
0.8403228521347046
0.8403505086898804
0.8403352499008179
0.8403199911117554
0.8403047323226929
0.8402894735336304
0.8402446508407593
0.8401998281478882
0.8401550054550171
0.840110182762146
0.8400682210922241
0.8400262594223022
0.8399842977523804
0.8399423360824585
0.8398374319076538
0.8397325277328491
0.8396276235580444
0.8395227193832397
0.839504599571228
0.8394864797592163
0.8394683599472046
0.8394502401351929
0.8394359350204468
0.8394216299057007
0.8394073247909546
0.8393930196762085
0.839377760887146
0.8393625020980835
0.839347243309021
0.8393319845199585
0.8393234014511108
0.8393148183822632
0.8393062353134155
0.8392976522445679
0.8393176794052124
0.8393377065658569
0.8393577337265015
0.839377760887146
0.8393815755844116
0.8393853902816772
0.8393892049789429
0.8393930196762085
0.8394244909286499
0.8394559621810913
0.8394874334335327
0.8395189046859741
0.8394588232040405
0.8393987417221069
0.8393386602401733
0.8392785787582397
0.8392680883407593
0.8392575979232788
0.8392471075057983
0.8392366170883179
0.8392442464828491
0.8392518758773804
0.8392595052719116
0.8392671346664429
0.8392719030380249
0.8392766714096069
0.839281439781189
0.839286208152771
0.8392289876937866
0.8391717672348022
0.8391145467758179
0.8390573263168335
0.8390706777572632
0.8390840291976929
0.8390973806381226
0.8391107320785522
0.8390544652938843
0.8389981985092163
0.8389419317245483
0.8388856649398804
0.8388437032699585
0.8388017416000366
0.8387597799301147
0.8387178182601929
0.8386720418930054
0.8386262655258179
0.8385804891586304
0.8385347127914429
0.838467001914978
0.8383992910385132
0.8383315801620483
0.8382638692855835
0.8382323980331421
0.8382009267807007
0.8381694555282593
0.8381379842758179
0.8381608724594116
0.8381837606430054
0.8382066488265991
0.8382295370101929
0.8382972478866577
0.8383649587631226
0.8384326696395874
0.8385003805160522
0.8385261297225952
0.8385518789291382
0.8385776281356812
0.8386033773422241
0.8386358022689819
0.8386682271957397
0.8387006521224976
0.8387330770492554
0.8387655019760132
0.838797926902771
0.8388303518295288
0.8388627767562866
0.838919997215271
0.8389772176742554
0.8390344381332397
0.8390916585922241
0.8390811681747437
0.8390706777572632
0.8390601873397827
0.8390496969223022
0.8390363454818726
0.8390229940414429
0.8390096426010132
0.8389962911605835
0.8390153646469116
0.8390344381332397
0.8390535116195679
0.839072585105896
0.8391221761703491
0.8391717672348022
0.8392213582992554
0.8392709493637085
0.8392709493637085
0.8392709493637085
0.8392709493637085
0.8392709493637085
0.8391927480697632
0.8391145467758179
0.8390363454818726
0.8389581441879272
0.8389877080917358
0.8390172719955444
0.839046835899353
0.8390763998031616
0.8390239477157593
0.8389714956283569
0.8389190435409546
0.8388665914535522
0.8388513326644897
0.8388360738754272
0.8388208150863647
0.8388055562973022
0.8388456106185913
0.8388856649398804
0.8389257192611694
0.8389657735824585
0.8389714956283569
0.8389772176742554
0.8389829397201538
0.8389886617660522
0.8390096426010132
0.8390306234359741
0.8390516042709351
0.839072585105896
0.8391469717025757
0.8392213582992554
0.8392957448959351
0.8393701314926147
0.839347243309021
0.8393243551254272
0.8393014669418335
0.8392785787582397
0.8392843008041382
0.8392900228500366
0.8392957448959351
0.8393014669418335
0.8393205404281616
0.8393396139144897
0.8393586874008179
0.839377760887146
0.8393911123275757
0.8394044637680054
0.8394178152084351
0.8394311666488647
0.8394368886947632
0.8394426107406616
0.8394483327865601
0.8394540548324585
0.8394140005111694
0.8393739461898804
0.8393338918685913
0.8392938375473022
0.8393081426620483
0.8393224477767944
0.8393367528915405
0.8393510580062866
0.8392919301986694
0.8392328023910522
0.8391736745834351
0.8391145467758179
0.8391002416610718
0.8390859365463257
0.8390716314315796
0.8390573263168335
0.8390535116195679
0.8390496969223022
0.8390458822250366
0.839042067527771
0.8390077352523804
0.8389734029769897
0.8389390707015991
0.8389047384262085
0.838915228843689
0.8389257192611694
0.8389362096786499
0.8389467000961304
0.838950514793396
0.8389543294906616
0.8389581441879272
0.8389619588851929
0.8389467000961304
0.8389314413070679
0.8389161825180054
0.8389009237289429
0.8389104604721069
0.838919997215271
0.8389295339584351
0.8389390707015991
0.8389791250228882
0.8390191793441772
0.8390592336654663
0.8390992879867554
0.839098334312439
0.8390973806381226
0.8390964269638062
0.8390954732894897
0.8391479253768921
0.8392003774642944
0.8392528295516968
0.8393052816390991
0.8392947912216187
0.8392843008041382
0.8392738103866577
0.8392633199691772
0.8392928838729858
0.8393224477767944
0.839352011680603
0.8393815755844116
0.8394159078598022
0.8394502401351929
0.8394845724105835
0.8395189046859741
0.8395417928695679
0.8395646810531616
0.8395875692367554
0.8396104574203491
0.8396800756454468
0.8397496938705444
0.8398193120956421
0.8398889303207397
0.8398641347885132
0.8398393392562866
0.8398145437240601
0.8397897481918335
0.8397735357284546
0.8397573232650757
0.8397411108016968
0.8397248983383179
0.8397191762924194
0.839713454246521
0.8397077322006226
0.8397020101547241
0.8397048711776733
0.8397077322006226
0.8397105932235718
0.839713454246521
0.8396857976913452
0.8396581411361694
0.8396304845809937
0.8396028280258179
0.8395894765853882
0.8395761251449585
0.8395627737045288
0.8395494222640991
0.8395875692367554
0.8396257162094116
0.8396638631820679
0.8397020101547241
0.8397706747055054
0.8398393392562866
0.8399080038070679
0.8399766683578491
0.8399642705917358
0.8399518728256226
0.8399394750595093
0.839927077293396
0.8398927450180054
0.8398584127426147
0.8398240804672241
0.8397897481918335
0.8397449254989624
0.8397001028060913
0.8396552801132202
0.8396104574203491
0.8395875692367554
0.8395646810531616
0.8395417928695679
0.8395189046859741
0.8394225835800171
0.8393262624740601
0.839229941368103
0.839133620262146
0.8390849828720093
0.8390363454818726
0.8389877080917358
0.8389390707015991
0.8390554189682007
0.8391717672348022
0.8392881155014038
0.8394044637680054
0.8395074605941772
0.8396104574203491
0.839713454246521
0.8398164510726929
0.8398860692977905
0.8399556875228882
0.8400253057479858
0.8400949239730835
0.8401321172714233
0.8401693105697632
0.840206503868103
0.8402436971664429
0.8402513265609741
0.8402589559555054
0.8402665853500366
0.8402742147445679
0.8402408361434937
0.8402074575424194
0.8401740789413452
0.840140700340271
0.8401044607162476
0.8400682210922241
0.8400319814682007
0.8399957418441772
0.8400386571884155
0.8400815725326538
0.8401244878768921
0.8401674032211304
0.8401683568954468
0.8401693105697632
0.8401702642440796
0.840171217918396
0.8401845693588257
0.8401979207992554
0.8402112722396851
0.8402246236801147
0.840237021446228
0.8402494192123413
0.8402618169784546
0.8402742147445679
0.8402808904647827
0.8402875661849976
0.8402942419052124
0.8403009176254272
0.8403533697128296
0.8404058218002319
0.8404582738876343
0.8405107259750366
0.840598464012146
0.8406862020492554
0.8407739400863647
0.8408616781234741
0.840908408164978
0.8409551382064819
0.8410018682479858
0.8410485982894897
0.8410419225692749
0.8410352468490601
0.8410285711288452
0.8410218954086304
0.8410276174545288
0.8410333395004272
0.8410390615463257
0.8410447835922241
0.8410218954086304
0.8409990072250366
0.8409761190414429
0.8409532308578491
0.8409475088119507
0.8409417867660522
0.8409360647201538
0.8409303426742554
0.8409284353256226
0.8409265279769897
0.8409246206283569
0.8409227132797241
0.8409017324447632
0.8408807516098022
0.8408597707748413
0.8408387899398804
0.8408397436141968
0.8408406972885132
0.8408416509628296
0.840842604637146
0.8408607244491577
0.8408788442611694
0.8408969640731812
0.8409150838851929
0.8409208059310913
0.8409265279769897
0.8409322500228882
0.8409379720687866
0.8409236669540405
0.8409093618392944
0.8408950567245483
0.8408807516098022
0.8408292531967163
0.8407777547836304
0.8407262563705444
0.8406747579574585
0.8407033681869507
0.8407319784164429
0.8407605886459351
0.8407891988754272
0.8407291173934937
0.8406690359115601
0.8406089544296265
0.8405488729476929
0.8405221700668335
0.8404954671859741
0.8404687643051147
0.8404420614242554
0.840445876121521
0.8404496908187866
0.8404535055160522
0.8404573202133179
0.8404363393783569
0.840415358543396
0.8403943777084351
0.8403733968734741
0.840293288230896
0.8402131795883179
0.8401330709457397
0.8400529623031616
0.8400558233261108
0.8400586843490601
0.8400615453720093
0.8400644063949585
0.8400577306747437
0.8400510549545288
0.840044379234314
0.8400377035140991
0.8400615453720093
0.8400853872299194
0.8401092290878296
0.8401330709457397
0.8401979207992554
0.840262770652771
0.8403276205062866
0.8403924703598022
0.8404163122177124
0.8404401540756226
0.8404639959335327
0.8404878377914429
0.8404706716537476
0.8404535055160522
0.8404363393783569
0.8404191732406616
0.8404287099838257
0.8404382467269897
0.8404477834701538
0.8404573202133179
0.8404363393783569
0.840415358543396
0.8403943777084351
0.8403733968734741
0.8403829336166382
0.8403924703598022
0.8404020071029663
0.8404115438461304
0.8404058218002319
0.8404000997543335
0.8403943777084351
0.8403886556625366
0.8404067754745483
0.8404248952865601
0.8404430150985718
0.8404611349105835
0.840445876121521
0.8404306173324585
0.840415358543396
0.8404000997543335
0.8403753042221069
0.8403505086898804
0.8403257131576538
0.8403009176254272
0.8403037786483765
0.8403066396713257
0.8403095006942749
0.8403123617172241
0.8403457403182983
0.8403791189193726
0.8404124975204468
0.840445876121521
0.8404878377914429
0.8405297994613647
0.8405717611312866
0.8406137228012085
0.8405822515487671
0.8405507802963257
0.8405193090438843
0.8404878377914429
0.8404792547225952
0.8404706716537476
0.8404620885848999
0.8404535055160522
0.8404010534286499
0.8403486013412476
0.8402961492538452
0.8402436971664429
0.8402475118637085
0.8402513265609741
0.8402551412582397
0.8402589559555054
0.8401988744735718
0.8401387929916382
0.8400787115097046
0.840018630027771
0.8399947881698608
0.8399709463119507
0.8399471044540405
0.8399232625961304
0.8399165868759155
0.8399099111557007
0.8399032354354858
0.839896559715271
0.8399537801742554
0.8400110006332397
0.8400682210922241
0.8401254415512085
0.8400958776473999
0.8400663137435913
0.8400367498397827
0.8400071859359741
0.8400624990463257
0.8401178121566772
0.8401731252670288
0.8402284383773804
0.8402341604232788
0.8402398824691772
0.8402456045150757
0.8402513265609741
0.840258002281189
0.8402646780014038
0.8402713537216187
0.8402780294418335
0.8402379751205444
0.8401979207992554
0.8401578664779663
0.8401178121566772
0.8400787115097046
0.8400396108627319
0.8400005102157593
0.8399614095687866
0.8399127721786499
0.8398641347885132
0.8398154973983765
0.8397668600082397
0.8397620916366577
0.8397573232650757
0.8397525548934937
0.8397477865219116
0.839687705039978
0.8396276235580444
0.8395675420761108
0.8395074605941772
0.8395084142684937
0.8395093679428101
0.8395103216171265
0.8395112752914429
0.8395217657089233
0.8395322561264038
0.8395427465438843
0.8395532369613647
0.8396209478378296
0.8396886587142944
0.8397563695907593
0.8398240804672241
0.8398221731185913
0.8398202657699585
0.8398183584213257
0.8398164510726929
0.8398183584213257
0.8398202657699585
0.8398221731185913
0.8398240804672241
0.8398069143295288
0.8397897481918335
0.8397725820541382
0.8397554159164429
0.839748740196228
0.8397420644760132
0.8397353887557983
0.8397287130355835
0.8396428823471069
0.8395570516586304
0.8394712209701538